  1.6789500e+001
  2.1789500e+001
  2.4789500e+001
  1.3789500e+001
  7.8950000e-001
 -7.2105000e+000
 -8.2105000e+000
 -4.2105000e+000
  7.8950000e-001
  7.7895000e+000
  9.7895000e+000
 -4.2105000e+000
 -2.0210500e+001
 -3.1210500e+001
 -4.7210500e+001
 -5.2210500e+001
 -5.2210500e+001
 -4.8210500e+001
 -4.5210500e+001
 -3.5210500e+001
 -3.4210500e+001
 -3.6210500e+001
 -4.7210500e+001
 -5.5210500e+001
 -6.6210500e+001
 -7.2210500e+001
 -7.6210500e+001
 -6.7210500e+001
 -5.6210500e+001
 -5.0210500e+001
 -4.8210500e+001
 -4.9210500e+001
 -5.6210500e+001
 -6.4210500e+001
 -7.1210500e+001
 -7.3210500e+001
 -7.0210500e+001
 -6.4210500e+001
 -5.9210500e+001
 -5.4210500e+001
 -5.3210500e+001
 -4.8210500e+001
 -5.4210500e+001
 -6.3210500e+001
 -7.4210500e+001
 -7.7210500e+001
 -7.5210500e+001
 -6.6210500e+001
 -5.6210500e+001
 -4.7210500e+001
 -4.2210500e+001
 -4.1210500e+001
 -5.0210500e+001
 -5.9210500e+001
 -7.6210500e+001
 -8.6210500e+001
 -1.0221050e+002
 -1.2021050e+002
 -1.3421050e+002
 -1.3821050e+002
 -1.4321050e+002
 -1.4621050e+002
 -1.3521050e+002
 -1.0521050e+002
 -5.7210500e+001
  1.8789500e+001
  1.1878950e+002
  2.4778950e+002
  3.7978950e+002
  5.2478950e+002
  6.6478950e+002
  7.7878950e+002
  8.5578950e+002
  8.9678950e+002
  8.5278950e+002
  7.6378950e+002
  6.5578950e+002
  5.1478950e+002
  3.5878950e+002
  2.0378950e+002
  6.0789500e+001
 -3.2210500e+001
 -8.4210500e+001
 -1.2121050e+002
 -1.3921050e+002
 -1.4221050e+002
 -1.3321050e+002
 -1.1721050e+002
 -9.9210500e+001
 -7.7210500e+001
 -6.1210500e+001
 -5.2210500e+001
 -4.8210500e+001
 -5.3210500e+001
 -5.6210500e+001
 -5.3210500e+001
 -5.2210500e+001
 -5.0210500e+001
 -4.0210500e+001
 -3.1210500e+001
 -2.7210500e+001
 -2.8210500e+001
 -3.4210500e+001
 -4.4210500e+001
 -5.1210500e+001
 -5.2210500e+001
 -5.0210500e+001
 -4.0210500e+001
 -3.0210500e+001
 -2.2210500e+001
 -1.6210500e+001
 -1.9210500e+001
 -2.3210500e+001
 -3.0210500e+001
 -3.7210500e+001
 -3.9210500e+001
 -3.7210500e+001
 -2.9210500e+001
 -2.0210500e+001
 -1.1210500e+001
 -4.2105000e+000
 -4.2105000e+000
 -6.2105000e+000
 -1.4210500e+001
 -2.6210500e+001
 -3.8210500e+001
 -3.6210500e+001
 -2.8210500e+001
 -2.0210500e+001
 -5.2105000e+000
  1.7895000e+000
  7.8950000e-001
 -4.2105000e+000
 -8.2105000e+000
 -1.6210500e+001
 -1.8210500e+001
 -1.4210500e+001
 -5.2105000e+000
  2.7895000e+000
  1.0789500e+001
  1.3789500e+001
  1.5789500e+001
  1.1789500e+001
  6.7895000e+000
  1.7895000e+000
  7.8950000e-001
  6.7895000e+000
  1.6789500e+001
  2.8789500e+001
  3.7789500e+001
  4.2789500e+001
  4.2789500e+001
  3.8789500e+001
  3.2789500e+001
  2.0789500e+001
  2.3789500e+001
  2.8789500e+001
  3.8789500e+001
  4.7789500e+001
  5.8789500e+001
  6.7789500e+001
  7.0789500e+001
  6.8789500e+001
  6.3789500e+001
  5.8789500e+001
  6.0789500e+001
  6.4789500e+001
  7.3789500e+001
  7.9789500e+001
  9.1789500e+001
  1.0078950e+002
  1.0378950e+002
  9.8789500e+001
  9.3789500e+001
  9.2789500e+001
  9.4789500e+001
  1.0078950e+002
  1.1178950e+002
  1.2478950e+002
  1.3078950e+002
  1.3978950e+002
  1.4478950e+002
  1.3478950e+002
  1.2078950e+002
  1.1578950e+002
  1.1578950e+002
  1.1978950e+002
  1.2678950e+002
  1.4278950e+002
  1.5378950e+002
  1.6278950e+002
  1.6178950e+002
  1.5978950e+002
  1.4678950e+002
  1.4078950e+002
  1.3478950e+002
  1.3478950e+002
  1.3478950e+002
  1.4778950e+002
  1.5778950e+002
  1.6278950e+002
  1.5678950e+002
  1.4778950e+002
  1.3278950e+002
  1.1778950e+002
  1.0478950e+002
  1.0278950e+002
  1.0378950e+002
  1.0478950e+002
  1.0378950e+002
  9.7789500e+001
  8.5789500e+001
  7.2789500e+001
  5.2789500e+001
  3.9789500e+001
  2.7789500e+001
  2.1789500e+001
  2.3789500e+001
  2.7789500e+001
  2.6789500e+001
  2.4789500e+001
  1.6789500e+001
  7.7895000e+000
 -7.2105000e+000
 -2.2210500e+001
 -3.8210500e+001
 -3.6210500e+001
 -3.3210500e+001
 -2.6210500e+001
 -1.8210500e+001
 -1.4210500e+001
 -1.6210500e+001
 -1.8210500e+001
 -3.1210500e+001
 -4.4210500e+001
 -5.0210500e+001
 -5.0210500e+001
 -4.7210500e+001
 -3.7210500e+001
 -3.5210500e+001
 -3.1210500e+001
 -3.1210500e+001
 -3.4210500e+001
 -4.3210500e+001
 -4.9210500e+001
 -5.5210500e+001
 -5.2210500e+001
 -4.7210500e+001
 -3.6210500e+001
 -2.7210500e+001
 -2.1210500e+001
 -2.3210500e+001
 -2.9210500e+001
 -3.7210500e+001
 -5.0210500e+001
 -5.5210500e+001
 -5.3210500e+001
 -4.3210500e+001
 -3.5210500e+001
 -2.5210500e+001
 -2.0210500e+001
 -2.1210500e+001
 -2.7210500e+001
 -3.5210500e+001
 -4.6210500e+001
 -5.2210500e+001
 -4.9210500e+001
 -4.1210500e+001
 -3.4210500e+001
 -2.7210500e+001
 -2.1210500e+001
 -2.5210500e+001
 -2.9210500e+001
 -3.9210500e+001
 -4.8210500e+001
 -5.2210500e+001
 -5.0210500e+001
 -4.5210500e+001
 -3.5210500e+001
 -2.6210500e+001
 -2.1210500e+001
 -2.4210500e+001
 -3.5210500e+001
 -4.0210500e+001
 -4.6210500e+001
 -4.8210500e+001
 -4.6210500e+001
 -4.1210500e+001
 -3.5210500e+001
 -2.7210500e+001
 -2.4210500e+001
 -2.4210500e+001
 -2.9210500e+001
 -3.6210500e+001
 -4.2210500e+001
 -4.8210500e+001
 -5.6210500e+001
 -4.8210500e+001
 -3.8210500e+001
 -2.8210500e+001
 -1.8210500e+001
 -1.6210500e+001
 -2.8210500e+001
 -3.5210500e+001
 -4.8210500e+001
 -5.3210500e+001
 -5.4210500e+001
 -4.6210500e+001
 -3.3210500e+001
 -2.2210500e+001
 -2.8210500e+001
 -3.2210500e+001
 -3.6210500e+001
 -4.4210500e+001
 -4.9210500e+001
 -5.6210500e+001
 -5.5210500e+001
 -4.9210500e+001
 -4.0210500e+001
 -3.2210500e+001
 -2.7210500e+001
 -2.9210500e+001
 -3.7210500e+001
 -4.6210500e+001
 -5.6210500e+001
 -6.7210500e+001
 -6.4210500e+001
 -5.7210500e+001
 -5.2210500e+001
 -4.4210500e+001
 -3.5210500e+001
 -3.5210500e+001
 -4.0210500e+001
 -4.7210500e+001
 -5.6210500e+001
 -6.4210500e+001
 -6.1210500e+001
 -5.5210500e+001
 -5.0210500e+001
 -4.8210500e+001
 -4.0210500e+001
 -4.3210500e+001
 -4.3210500e+001
 -5.1210500e+001
 -6.2210500e+001
 -6.8210500e+001
 -6.5210500e+001
 -5.9210500e+001
 -5.1210500e+001
 -4.2210500e+001
 -3.7210500e+001
 -4.2210500e+001
 -4.3210500e+001
 -5.5210500e+001
 -6.5210500e+001
 -7.1210500e+001
 -6.8210500e+001
 -6.1210500e+001
 -5.3210500e+001
 -4.4210500e+001
 -3.7210500e+001
 -3.7210500e+001
 -4.4210500e+001
 -5.5210500e+001
 -6.6210500e+001
 -6.9210500e+001
 -6.9210500e+001
 -6.3210500e+001
 -5.7210500e+001
 -4.6210500e+001
 -3.9210500e+001
 -3.9210500e+001
 -4.3210500e+001
 -4.9210500e+001
 -5.3210500e+001
 -5.2210500e+001
 -4.7210500e+001
 -3.4210500e+001
 -2.0210500e+001
 -9.2105000e+000
 -3.2105000e+000
 -5.2105000e+000
 -1.4210500e+001
 -2.1210500e+001
 -2.9210500e+001
 -3.4210500e+001
 -3.2210500e+001
 -2.2210500e+001
 -1.1210500e+001
 -2.2105000e+000
  4.7895000e+000
  5.7895000e+000
  7.8950000e-001
 -9.2105000e+000
 -1.8210500e+001
 -2.1210500e+001
 -2.3210500e+001
 -1.1210500e+001
 -2.2105000e+000
  4.7895000e+000
  7.7895000e+000
  8.7895000e+000
  4.7895000e+000
 -7.2105000e+000
 -1.9210500e+001
 -2.8210500e+001
 -3.7210500e+001
 -3.6210500e+001
 -3.2210500e+001
 -2.9210500e+001
 -3.0210500e+001
 -3.4210500e+001
 -4.8210500e+001
 -5.5210500e+001
 -6.0210500e+001
 -7.1210500e+001
 -8.0210500e+001
 -7.5210500e+001
 -7.1210500e+001
 -6.1210500e+001
 -5.2210500e+001
 -4.8210500e+001
 -5.4210500e+001
 -6.3210500e+001
 -7.9210500e+001
 -9.3210500e+001
 -8.8210500e+001
 -7.9210500e+001
 -7.0210500e+001
 -6.5210500e+001
 -5.7210500e+001
 -5.5210500e+001
 -6.0210500e+001
 -6.5210500e+001
 -7.1210500e+001
 -8.1210500e+001
 -8.0210500e+001
 -7.2210500e+001
 -6.6210500e+001
 -6.3210500e+001
 -5.4210500e+001
 -5.2210500e+001
 -5.4210500e+001
 -6.1210500e+001
 -6.9210500e+001
 -7.7210500e+001
 -7.5210500e+001
 -7.1210500e+001
 -6.2210500e+001
 -6.1210500e+001
 -6.3210500e+001
 -8.2210500e+001
 -1.1421050e+002
 -1.4521050e+002
 -1.6621050e+002
 -1.7821050e+002
 -1.8021050e+002
 -1.5821050e+002
 -1.1721050e+002
 -5.1210500e+001
  3.6789500e+001
  1.3878950e+002
  2.5778950e+002
  3.8378950e+002
  5.1278950e+002
  6.3578950e+002
  7.4978950e+002
  8.3678950e+002
  8.9378950e+002
  8.6478950e+002
  7.8378950e+002
  6.6878950e+002
  5.1778950e+002
  3.4578950e+002
  1.7478950e+002
  2.2789500e+001
 -6.2210500e+001
 -9.9210500e+001
 -1.1221050e+002
 -1.1221050e+002
 -1.0521050e+002
 -1.0821050e+002
 -1.0721050e+002
 -1.0921050e+002
 -1.0121050e+002
 -9.4210500e+001
 -8.6210500e+001
 -7.3210500e+001
 -5.6210500e+001
 -4.3210500e+001
 -2.9210500e+001
 -2.2210500e+001
 -2.7210500e+001
 -3.7210500e+001
 -4.6210500e+001
 -5.7210500e+001
 -6.3210500e+001
 -5.6210500e+001
 -4.6210500e+001
 -3.6210500e+001
 -2.7210500e+001
 -2.7210500e+001
 -3.3210500e+001
 -4.0210500e+001
 -4.6210500e+001
 -5.1210500e+001
 -5.5210500e+001
 -4.8210500e+001
 -4.1210500e+001
 -3.1210500e+001
 -2.6210500e+001
 -2.3210500e+001
 -2.4210500e+001
 -2.9210500e+001
 -3.5210500e+001
 -3.5210500e+001
 -3.4210500e+001
 -3.4210500e+001
 -2.4210500e+001
 -1.6210500e+001
 -8.2105000e+000
 -4.2105000e+000
 -4.2105000e+000
 -1.2210500e+001
 -2.8210500e+001
 -3.2210500e+001
 -3.0210500e+001
 -2.3210500e+001
 -1.4210500e+001
 -2.2105000e+000
  7.7895000e+000
  1.0789500e+001
  7.7895000e+000
  5.7895000e+000
 -3.2105000e+000
 -1.0210500e+001
 -1.1210500e+001
 -4.2105000e+000
  1.7895000e+000
  1.4789500e+001
  2.6789500e+001
  3.2789500e+001
  3.1789500e+001
  2.6789500e+001
  1.7789500e+001
  6.7895000e+000
  8.7895000e+000
  1.5789500e+001
  2.5789500e+001
  3.7789500e+001
  4.7789500e+001
  5.0789500e+001
  4.7789500e+001
  4.1789500e+001
  3.8789500e+001
  3.4789500e+001
  3.9789500e+001
  4.6789500e+001
  5.7789500e+001
  6.8789500e+001
  8.0789500e+001
  8.5789500e+001
  8.3789500e+001
  8.3789500e+001
  7.5789500e+001
  7.0789500e+001
  6.9789500e+001
  7.4789500e+001
  8.9789500e+001
  1.0478950e+002
  1.1478950e+002
  1.1978950e+002
  1.1678950e+002
  1.1278950e+002
  1.0878950e+002
  1.0478950e+002
  1.0778950e+002
  1.1678950e+002
  1.2978950e+002
  1.3978950e+002
  1.5278950e+002
  1.4978950e+002
  1.4678950e+002
  1.4078950e+002
  1.3578950e+002
  1.2878950e+002
  1.3178950e+002
  1.3478950e+002
  1.4378950e+002
  1.5278950e+002
  1.5978950e+002
  1.6078950e+002
  1.5878950e+002
  1.4778950e+002
  1.4078950e+002
  1.2678950e+002
  1.2178950e+002
  1.2278950e+002
  1.2878950e+002
  1.3578950e+002
  1.3678950e+002
  1.2778950e+002
  1.1978950e+002
  1.0778950e+002
  8.7789500e+001
  6.9789500e+001
  6.1789500e+001
  5.9789500e+001
  5.2789500e+001
  4.8789500e+001
  4.6789500e+001
  4.5789500e+001
  3.4789500e+001
  2.2789500e+001
  6.7895000e+000
 -4.2105000e+000
 -1.1210500e+001
 -1.0210500e+001
 -8.2105000e+000
 -2.2105000e+000
  1.7895000e+000
  7.8950000e-001
 -5.2105000e+000
 -1.8210500e+001
 -3.3210500e+001
 -3.9210500e+001
 -4.5210500e+001
 -4.1210500e+001
 -3.6210500e+001
 -3.0210500e+001
 -2.4210500e+001
 -2.2210500e+001
 -2.7210500e+001
 -3.4210500e+001
 -4.4210500e+001
 -5.1210500e+001
 -5.1210500e+001
 -4.8210500e+001
 -4.9210500e+001
 -3.8210500e+001
 -3.2210500e+001
 -2.9210500e+001
 -3.2210500e+001
 -3.8210500e+001
 -4.4210500e+001
 -5.1210500e+001
 -5.4210500e+001
 -4.7210500e+001
 -3.8210500e+001
 -3.0210500e+001
 -1.8210500e+001
 -1.8210500e+001
 -2.8210500e+001
 -3.5210500e+001
 -4.7210500e+001
 -5.2210500e+001
 -5.3210500e+001
 -5.0210500e+001
 -4.2210500e+001
 -3.0210500e+001
 -1.9210500e+001
 -1.5210500e+001
 -2.3210500e+001
 -3.2210500e+001
 -4.1210500e+001
 -4.7210500e+001
 -5.4210500e+001
 -5.5210500e+001
 -4.7210500e+001
 -3.5210500e+001
 -2.6210500e+001
 -2.4210500e+001
 -2.6210500e+001
 -2.9210500e+001
 -3.7210500e+001
 -3.8210500e+001
 -4.1210500e+001
 -4.4210500e+001
 -3.8210500e+001
 -3.2210500e+001
 -2.4210500e+001
 -2.8210500e+001
 -2.8210500e+001
 -3.4210500e+001
 -3.9210500e+001
 -4.7210500e+001
 -4.7210500e+001
 -4.6210500e+001
 -3.6210500e+001
 -3.3210500e+001
 -2.3210500e+001
 -1.7210500e+001
 -2.1210500e+001
 -2.9210500e+001
 -3.8210500e+001
 -5.1210500e+001
 -5.4210500e+001
 -5.3210500e+001
 -4.3210500e+001
 -3.4210500e+001
 -2.5210500e+001
 -2.4210500e+001
 -2.7210500e+001
 -3.4210500e+001
 -4.2210500e+001
 -5.0210500e+001
 -5.3210500e+001
 -4.9210500e+001
 -4.2210500e+001
 -4.0210500e+001
 -3.2210500e+001
 -2.8210500e+001
 -3.2210500e+001
 -4.0210500e+001
 -4.6210500e+001
 -5.7210500e+001
 -5.8210500e+001
 -5.3210500e+001
 -4.9210500e+001
 -4.4210500e+001
 -3.6210500e+001
 -3.2210500e+001
 -3.4210500e+001
 -4.7210500e+001
 -5.8210500e+001
 -6.4210500e+001
 -6.5210500e+001
 -6.4210500e+001
 -5.5210500e+001
 -4.6210500e+001
 -3.6210500e+001
 -3.4210500e+001
 -3.9210500e+001
 -4.8210500e+001
 -5.7210500e+001
 -6.7210500e+001
 -6.5210500e+001
 -6.2210500e+001
 -6.1210500e+001
 -5.5210500e+001
 -4.6210500e+001
 -4.5210500e+001
 -4.7210500e+001
 -5.2210500e+001
 -5.9210500e+001
 -7.0210500e+001
 -7.4210500e+001
 -6.9210500e+001
 -6.1210500e+001
 -5.0210500e+001
 -4.1210500e+001
 -4.3210500e+001
 -5.2210500e+001
 -5.5210500e+001
 -5.9210500e+001
 -6.6210500e+001
 -7.0210500e+001
 -6.7210500e+001
 -6.1210500e+001
 -5.3210500e+001
 -4.7210500e+001
 -4.4210500e+001
 -4.6210500e+001
 -5.3210500e+001
 -5.6210500e+001
 -5.8210500e+001
 -6.5210500e+001
 -5.7210500e+001
 -4.4210500e+001
 -3.0210500e+001
 -1.6210500e+001
 -9.2105000e+000
 -8.2105000e+000
 -1.5210500e+001
 -2.6210500e+001
 -3.2210500e+001
 -3.8210500e+001
 -3.2210500e+001
 -1.7210500e+001
 -9.2105000e+000
 -2.2105000e+000
 -2.1050000e-001
 -1.2105000e+000
 -1.0210500e+001
 -1.6210500e+001
 -2.3210500e+001
 -2.8210500e+001
 -2.3210500e+001
 -5.2105000e+000
  4.7895000e+000
  1.0789500e+001
  9.7895000e+000
  6.7895000e+000
 -3.2105000e+000
 -1.7210500e+001
 -2.8210500e+001
 -2.9210500e+001
 -3.1210500e+001
 -2.8210500e+001
 -2.5210500e+001
 -2.1210500e+001
 -1.7210500e+001
 -2.1210500e+001
 -3.9210500e+001
 -5.5210500e+001
 -6.5210500e+001
 -7.4210500e+001
 -7.7210500e+001
 -7.2210500e+001
 -7.0210500e+001
 -6.0210500e+001
 -5.7210500e+001
 -6.1210500e+001
 -6.7210500e+001
 -7.3210500e+001
 -8.1210500e+001
 -8.3210500e+001
 -7.8210500e+001
 -7.0210500e+001
 -6.4210500e+001
 -5.6210500e+001
 -5.6210500e+001
 -5.9210500e+001
 -7.1210500e+001
 -7.7210500e+001
 -8.7210500e+001
 -8.6210500e+001
 -8.4210500e+001
 -7.5210500e+001
 -6.4210500e+001
 -5.0210500e+001
 -4.8210500e+001
 -5.4210500e+001
 -6.2210500e+001
 -6.9210500e+001
 -7.7210500e+001
 -7.7210500e+001
 -7.9210500e+001
 -7.2210500e+001
 -6.4210500e+001
 -5.7210500e+001
 -5.6210500e+001
 -6.9210500e+001
 -9.5210500e+001
 -1.2521050e+002
 -1.5521050e+002
 -1.7421050e+002
 -1.7921050e+002
 -1.7221050e+002
 -1.4621050e+002
 -1.0921050e+002
 -4.8210500e+001
  3.4789500e+001
  1.3478950e+002
  2.4978950e+002
  3.7778950e+002
  5.1078950e+002
  6.4378950e+002
  7.6278950e+002
  8.6078950e+002
  9.1578950e+002
  8.8078950e+002
  7.8978950e+002
  6.6978950e+002
  5.0778950e+002
  3.3078950e+002
  1.5878950e+002
  1.7789500e+001
 -6.0210500e+001
 -8.9210500e+001
 -1.0321050e+002
 -1.0721050e+002
 -1.0921050e+002
 -1.1121050e+002
 -1.1521050e+002
 -1.1121050e+002
 -1.0521050e+002
 -8.9210500e+001
 -7.2210500e+001
 -5.5210500e+001
 -4.5210500e+001
 -3.5210500e+001
 -3.3210500e+001
 -3.8210500e+001
 -4.5210500e+001
 -5.5210500e+001
 -5.9210500e+001
 -5.2210500e+001
 -4.8210500e+001
 -4.3210500e+001
 -3.7210500e+001
 -3.1210500e+001
 -3.1210500e+001
 -3.4210500e+001
 -4.6210500e+001
 -5.1210500e+001
 -5.7210500e+001
 -5.1210500e+001
 -4.3210500e+001
 -3.2210500e+001
 -2.2210500e+001
 -1.9210500e+001
 -2.1210500e+001
 -2.6210500e+001
 -3.5210500e+001
 -4.2210500e+001
 -4.4210500e+001
 -3.7210500e+001
 -3.3210500e+001
 -2.7210500e+001
 -1.7210500e+001
 -1.2210500e+001
 -1.1210500e+001
 -1.6210500e+001
 -2.5210500e+001
 -3.2210500e+001
 -3.2210500e+001
 -2.9210500e+001
 -1.9210500e+001
 -6.2105000e+000
  4.7895000e+000
  7.7895000e+000
  5.7895000e+000
 -4.2105000e+000
 -1.1210500e+001
 -1.9210500e+001
 -2.0210500e+001
 -1.8210500e+001
 -8.2105000e+000
  5.7895000e+000
  1.7789500e+001
  2.1789500e+001
  2.3789500e+001
  2.3789500e+001
  1.5789500e+001
  8.7895000e+000
  7.7895000e+000
  4.7895000e+000
  1.3789500e+001
  2.9789500e+001
  4.4789500e+001
  5.1789500e+001
  5.1789500e+001
  4.3789500e+001
  3.2789500e+001
  2.9789500e+001
  3.0789500e+001
  3.4789500e+001
  4.2789500e+001
  5.3789500e+001
  6.7789500e+001
  6.8789500e+001
  7.1789500e+001
  7.3789500e+001
  7.0789500e+001
  6.4789500e+001
  6.4789500e+001
  6.5789500e+001
  7.8789500e+001
  9.0789500e+001
  1.0378950e+002
  1.1178950e+002
  1.1278950e+002
  1.0878950e+002
  1.0478950e+002
  9.4789500e+001
  9.3789500e+001
  1.0178950e+002
  1.1078950e+002
  1.2278950e+002
  1.3378950e+002
  1.3878950e+002
  1.3878950e+002
  1.3378950e+002
  1.2878950e+002
  1.2378950e+002
  1.2078950e+002
  1.2578950e+002
  1.3578950e+002
  1.4478950e+002
  1.4978950e+002
  1.5778950e+002
  1.6078950e+002
  1.5578950e+002
  1.4578950e+002
  1.3778950e+002
  1.3078950e+002
  1.3078950e+002
  1.3378950e+002
  1.3778950e+002
  1.3778950e+002
  1.3678950e+002
  1.3378950e+002
  1.1878950e+002
  9.5789500e+001
  8.2789500e+001
  6.7789500e+001
  6.0789500e+001
  5.9789500e+001
  6.0789500e+001
  6.2789500e+001
  5.9789500e+001
  5.1789500e+001
  4.1789500e+001
  2.6789500e+001
  9.7895000e+000
  7.8950000e-001
 -9.2105000e+000
 -1.6210500e+001
 -1.3210500e+001
 -8.2105000e+000
 -5.2105000e+000
 -2.2105000e+000
 -1.1210500e+001
 -2.9210500e+001
 -4.0210500e+001
 -4.6210500e+001
 -4.7210500e+001
 -4.2210500e+001
 -3.4210500e+001
 -2.3210500e+001
 -2.3210500e+001
 -3.0210500e+001
 -3.9210500e+001
 -4.6210500e+001
 -5.5210500e+001
 -6.0210500e+001
 -5.9210500e+001
 -5.0210500e+001
 -4.3210500e+001
 -3.2210500e+001
 -2.6210500e+001
 -2.8210500e+001
 -3.2210500e+001
 -3.8210500e+001
 -4.7210500e+001
 -5.6210500e+001
 -5.6210500e+001
 -4.3210500e+001
 -3.4210500e+001
 -3.2210500e+001
 -2.6210500e+001
 -3.0210500e+001
 -3.8210500e+001
 -4.7210500e+001
 -5.5210500e+001
 -5.8210500e+001
 -5.6210500e+001
 -4.6210500e+001
 -3.6210500e+001
 -3.0210500e+001
 -3.2210500e+001
 -2.9210500e+001
 -3.4210500e+001
 -4.3210500e+001
 -5.0210500e+001
 -5.3210500e+001
 -5.3210500e+001
 -4.4210500e+001
 -3.5210500e+001
 -3.2210500e+001
 -2.5210500e+001
 -2.2210500e+001
 -2.9210500e+001
 -3.8210500e+001
 -5.2210500e+001
 -5.6210500e+001
 -5.9210500e+001
 -5.4210500e+001
 -4.4210500e+001
 -3.3210500e+001
 -2.6210500e+001
 -2.5210500e+001
 -3.1210500e+001
 -4.1210500e+001
 -5.0210500e+001
 -4.9210500e+001
 -4.9210500e+001
 -4.3210500e+001
 -4.1210500e+001
 -3.2210500e+001
 -2.5210500e+001
 -2.2210500e+001
 -2.5210500e+001
 -3.6210500e+001
 -4.9210500e+001
 -5.9210500e+001
 -5.8210500e+001
 -5.2210500e+001
 -4.3210500e+001
 -3.2210500e+001
 -2.2210500e+001
 -2.3210500e+001
 -3.4210500e+001
 -4.8210500e+001
 -5.3210500e+001
 -5.8210500e+001
 -5.4210500e+001
 -4.9210500e+001
 -4.1210500e+001
 -3.3210500e+001
 -2.6210500e+001
 -3.2210500e+001
 -3.9210500e+001
 -4.8210500e+001
 -5.6210500e+001
 -5.9210500e+001
 -6.0210500e+001
 -6.2210500e+001
 -5.2210500e+001
 -4.4210500e+001
 -3.9210500e+001
 -3.8210500e+001
 -3.8210500e+001
 -4.7210500e+001
 -5.8210500e+001
 -6.6210500e+001
 -6.7210500e+001
 -6.3210500e+001
 -5.4210500e+001
 -4.7210500e+001
 -4.2210500e+001
 -5.1210500e+001
 -5.7210500e+001
 -6.5210500e+001
 -7.3210500e+001
 -8.0210500e+001
 -7.5210500e+001
 -7.1210500e+001
 -5.9210500e+001
 -5.3210500e+001
 -4.7210500e+001
 -4.7210500e+001
 -4.9210500e+001
 -6.0210500e+001
 -6.9210500e+001
 -8.0210500e+001
 -8.3210500e+001
 -7.8210500e+001
 -6.7210500e+001
 -5.8210500e+001
 -5.0210500e+001
 -5.0210500e+001
 -5.4210500e+001
 -6.3210500e+001
 -6.9210500e+001
 -7.6210500e+001
 -7.6210500e+001
 -7.3210500e+001
 -6.4210500e+001
 -5.9210500e+001
 -5.4210500e+001
 -5.3210500e+001
 -5.5210500e+001
 -5.9210500e+001
 -6.6210500e+001
 -7.4210500e+001
 -7.1210500e+001
 -6.1210500e+001
 -5.1210500e+001
 -3.8210500e+001
 -2.7210500e+001
 -2.4210500e+001
 -2.6210500e+001
 -3.2210500e+001
 -4.4210500e+001
 -4.8210500e+001
 -4.7210500e+001
 -4.0210500e+001
 -3.3210500e+001
 -2.2210500e+001
 -1.0210500e+001
 -3.2105000e+000
 -7.2105000e+000
 -2.1210500e+001
 -3.2210500e+001
 -4.0210500e+001
 -3.8210500e+001
 -3.3210500e+001
 -2.7210500e+001
 -1.3210500e+001
 -1.2105000e+000
  1.7895000e+000
 -4.2105000e+000
 -1.5210500e+001
 -2.7210500e+001
 -3.5210500e+001
 -3.5210500e+001
 -2.9210500e+001
 -2.4210500e+001
 -2.0210500e+001
 -1.9210500e+001
 -2.3210500e+001
 -4.1210500e+001
 -5.3210500e+001
 -6.6210500e+001
 -7.8210500e+001
 -8.3210500e+001
 -7.9210500e+001
 -7.4210500e+001
 -7.0210500e+001
 -6.3210500e+001
 -6.4210500e+001
 -6.9210500e+001
 -7.4210500e+001
 -8.2210500e+001
 -8.8210500e+001
 -9.5210500e+001
 -9.3210500e+001
 -8.0210500e+001
 -7.5210500e+001
 -6.7210500e+001
 -6.7210500e+001
 -6.8210500e+001
 -7.7210500e+001
 -8.8210500e+001
 -9.2210500e+001
 -9.6210500e+001
 -9.4210500e+001
 -8.0210500e+001
 -7.2210500e+001
 -6.8210500e+001
 -7.1210500e+001
 -7.0210500e+001
 -7.8210500e+001
 -8.8210500e+001
 -9.4210500e+001
 -9.7210500e+001
 -9.2210500e+001
 -8.1210500e+001
 -7.0210500e+001
 -6.1210500e+001
 -5.6210500e+001
 -6.1210500e+001
 -7.5210500e+001
 -1.0421050e+002
 -1.3821050e+002
 -1.6421050e+002
 -1.7821050e+002
 -1.8421050e+002
 -1.8321050e+002
 -1.7221050e+002
 -1.5021050e+002
 -1.1521050e+002
 -5.3210500e+001
  3.0789500e+001
  1.3978950e+002
  2.7078950e+002
  4.0878950e+002
  5.5578950e+002
  6.8478950e+002
  7.9778950e+002
  8.7878950e+002
  9.0178950e+002
  8.3078950e+002
  7.2878950e+002
  5.9178950e+002
  4.3578950e+002
  2.6778950e+002
  1.1078950e+002
 -1.5210500e+001
 -8.1210500e+001
 -1.1121050e+002
 -1.3721050e+002
 -1.5021050e+002
 -1.5721050e+002
 -1.5521050e+002
 -1.4921050e+002
 -1.3321050e+002
 -1.1521050e+002
 -9.2210500e+001
 -7.4210500e+001
 -6.1210500e+001
 -5.9210500e+001
 -6.0210500e+001
 -6.8210500e+001
 -7.1210500e+001
 -7.1210500e+001
 -6.9210500e+001
 -6.5210500e+001
 -5.4210500e+001
 -5.0210500e+001
 -4.7210500e+001
 -4.9210500e+001
 -5.5210500e+001
 -6.3210500e+001
 -6.7210500e+001
 -7.2210500e+001
 -6.4210500e+001
 -5.2210500e+001
 -4.4210500e+001
 -3.6210500e+001
 -3.5210500e+001
 -4.6210500e+001
 -4.8210500e+001
 -5.8210500e+001
 -6.8210500e+001
 -6.9210500e+001
 -6.1210500e+001
 -5.0210500e+001
 -3.8210500e+001
 -2.8210500e+001
 -2.5210500e+001
 -2.8210500e+001
 -3.6210500e+001
 -4.5210500e+001
 -5.0210500e+001
 -6.0210500e+001
 -5.3210500e+001
 -4.2210500e+001
 -2.8210500e+001
 -1.6210500e+001
 -9.2105000e+000
 -1.4210500e+001
 -1.9210500e+001
 -2.5210500e+001
 -3.0210500e+001
 -3.6210500e+001
 -2.7210500e+001
 -1.9210500e+001
 -5.2105000e+000
 -2.1050000e-001
  3.7895000e+000
  3.7895000e+000
 -1.2105000e+000
 -7.2105000e+000
 -1.2210500e+001
 -1.5210500e+001
 -5.2105000e+000
  4.7895000e+000
  1.2789500e+001
  2.3789500e+001
  2.7789500e+001
  2.6789500e+001
  2.2789500e+001
  1.6789500e+001
  3.7895000e+000
  4.7895000e+000
  1.2789500e+001
  2.9789500e+001
  3.9789500e+001
  5.1789500e+001
  5.5789500e+001
  5.6789500e+001
  5.2789500e+001
  4.6789500e+001
  4.3789500e+001
  4.8789500e+001
  5.7789500e+001
  6.9789500e+001
  7.3789500e+001
  8.8789500e+001
  9.1789500e+001
  9.1789500e+001
  8.6789500e+001
  8.0789500e+001
  7.5789500e+001
  7.8789500e+001
  8.6789500e+001
  9.5789500e+001
  1.0578950e+002
  1.1778950e+002
  1.2178950e+002
  1.2178950e+002
  1.1078950e+002
  1.0578950e+002
  1.0178950e+002
  1.0678950e+002
  1.1378950e+002
  1.2678950e+002
  1.3678950e+002
  1.4578950e+002
  1.4578950e+002
  1.4278950e+002
  1.3578950e+002
  1.2878950e+002
  1.2178950e+002
  1.2278950e+002
  1.1978950e+002
  1.2178950e+002
  1.2678950e+002
  1.3478950e+002
  1.3178950e+002
  1.2078950e+002
  1.0378950e+002
  8.8789500e+001
  7.0789500e+001
  6.2789500e+001
  5.7789500e+001
  6.0789500e+001
  6.0789500e+001
  6.3789500e+001
  5.5789500e+001
  4.1789500e+001
  2.9789500e+001
  1.9789500e+001
  1.7895000e+000
 -9.2105000e+000
 -1.5210500e+001
 -1.6210500e+001
 -1.2210500e+001
 -8.2105000e+000
 -1.2210500e+001
 -1.9210500e+001
 -2.7210500e+001
 -3.8210500e+001
 -5.1210500e+001
 -5.7210500e+001
 -5.0210500e+001
 -4.6210500e+001
 -4.3210500e+001
 -3.4210500e+001
 -3.0210500e+001
 -3.2210500e+001
 -4.0210500e+001
 -5.4210500e+001
 -6.4210500e+001
 -6.7210500e+001
 -6.3210500e+001
 -5.7210500e+001
 -5.0210500e+001
 -4.7210500e+001
 -4.6210500e+001
 -4.6210500e+001
 -5.4210500e+001
 -6.3210500e+001
 -6.7210500e+001
 -6.9210500e+001
 -6.6210500e+001
 -5.8210500e+001
 -5.1210500e+001
 -4.4210500e+001
 -3.8210500e+001
 -3.9210500e+001
 -4.5210500e+001
 -5.6210500e+001
 -6.7210500e+001
 -6.8210500e+001
 -6.4210500e+001
 -5.7210500e+001
 -5.0210500e+001
 -4.3210500e+001
 -3.8210500e+001
 -3.8210500e+001
 -4.6210500e+001
 -5.4210500e+001
 -6.5210500e+001
 -6.6210500e+001
 -6.2210500e+001
 -5.7210500e+001
 -5.2210500e+001
 -3.8210500e+001
 -3.6210500e+001
 -3.6210500e+001
 -3.9210500e+001
 -4.4210500e+001
 -5.4210500e+001
 -5.8210500e+001
 -5.8210500e+001
 -5.0210500e+001
 -4.3210500e+001
 -3.6210500e+001
 -3.5210500e+001
 -3.7210500e+001
 -5.1210500e+001
 -5.8210500e+001
 -6.6210500e+001
 -6.6210500e+001
 -5.9210500e+001
 -5.4210500e+001
 -4.4210500e+001
 -2.9210500e+001
 -2.6210500e+001
 -2.9210500e+001
 -3.7210500e+001
 -5.0210500e+001
 -5.8210500e+001
 -5.9210500e+001
 -6.1210500e+001
 -5.3210500e+001
 -4.9210500e+001
 -3.8210500e+001
 -3.2210500e+001
 -3.3210500e+001
 -4.3210500e+001
 -5.2210500e+001
 -5.6210500e+001
 -6.1210500e+001
 -6.1210500e+001
 -5.3210500e+001
 -4.5210500e+001
 -3.6210500e+001
 -3.9210500e+001
 -4.1210500e+001
 -4.4210500e+001
 -5.2210500e+001
 -6.3210500e+001
 -6.5210500e+001
 -6.6210500e+001
 -5.4210500e+001
 -4.5210500e+001
 -3.7210500e+001
 -3.7210500e+001
 -4.3210500e+001
 -5.3210500e+001
 -6.3210500e+001
 -7.4210500e+001
 -8.1210500e+001
 -7.2210500e+001
 -6.3210500e+001
 -5.6210500e+001
 -4.7210500e+001
 -4.0210500e+001
 -4.1210500e+001
 -4.7210500e+001
 -6.0210500e+001
 -7.0210500e+001
 -7.6210500e+001
 -7.2210500e+001
 -6.5210500e+001
 -6.0210500e+001
 -5.8210500e+001
 -5.3210500e+001
 -5.7210500e+001
 -6.3210500e+001
 -6.9210500e+001
 -7.5210500e+001
 -7.7210500e+001
 -7.6210500e+001
 -7.0210500e+001
 -6.1210500e+001
 -5.3210500e+001
 -4.5210500e+001
 -4.9210500e+001
 -5.7210500e+001
 -7.0210500e+001
 -8.1210500e+001
 -8.5210500e+001
 -8.1210500e+001
 -7.3210500e+001
 -5.9210500e+001
 -4.9210500e+001
 -4.8210500e+001
 -5.2210500e+001
 -5.6210500e+001
 -6.6210500e+001
 -7.2210500e+001
 -7.6210500e+001
 -6.7210500e+001
 -6.2210500e+001
 -5.6210500e+001
 -4.5210500e+001
 -3.7210500e+001
 -3.1210500e+001
 -3.0210500e+001
 -3.7210500e+001
 -4.3210500e+001
 -4.5210500e+001
 -3.8210500e+001
 -3.4210500e+001
 -2.4210500e+001
 -1.4210500e+001
 -8.2105000e+000
 -1.4210500e+001
 -1.8210500e+001
 -2.4210500e+001
 -3.1210500e+001
 -3.9210500e+001
 -3.6210500e+001
 -2.8210500e+001
 -1.6210500e+001
 -6.2105000e+000
  2.7895000e+000
  3.7895000e+000
  7.8950000e-001
 -7.2105000e+000
 -1.9210500e+001
 -2.9210500e+001
 -3.1210500e+001
 -2.5210500e+001
 -1.8210500e+001
 -9.2105000e+000
 -9.2105000e+000
 -1.6210500e+001
 -2.5210500e+001
 -3.8210500e+001
 -5.6210500e+001
 -6.1210500e+001
 -6.1210500e+001
 -5.6210500e+001
 -4.7210500e+001
 -4.2210500e+001
 -5.5210500e+001
 -6.0210500e+001
 -6.8210500e+001
 -7.7210500e+001
 -8.5210500e+001
 -8.7210500e+001
 -8.6210500e+001
 -8.0210500e+001
 -7.1210500e+001
 -6.6210500e+001
 -6.2210500e+001
 -6.1210500e+001
 -6.4210500e+001
 -7.6210500e+001
 -9.0210500e+001
 -9.1210500e+001
 -8.6210500e+001
 -8.4210500e+001
 -7.6210500e+001
 -6.4210500e+001
 -6.1210500e+001
 -6.4210500e+001
 -6.7210500e+001
 -7.0210500e+001
 -7.8210500e+001
 -8.2210500e+001
 -8.5210500e+001
 -7.7210500e+001
 -7.1210500e+001
 -6.3210500e+001
 -5.6210500e+001
 -5.4210500e+001
 -6.1210500e+001
 -7.0210500e+001
 -8.4210500e+001
 -9.8210500e+001
 -1.1321050e+002
 -1.2721050e+002
 -1.4521050e+002
 -1.5121050e+002
 -1.5521050e+002
 -1.5821050e+002
 -1.5321050e+002
 -1.3221050e+002
 -8.2210500e+001
 -2.2105000e+000
  1.0378950e+002
  2.3178950e+002
  3.7378950e+002
  5.1778950e+002
  6.5778950e+002
  7.7178950e+002
  8.5778950e+002
  9.0278950e+002
  8.6478950e+002
  7.7778950e+002
  6.6878950e+002
  5.2178950e+002
  3.6278950e+002
  2.0178950e+002
  5.2789500e+001
 -4.8210500e+001
 -9.1210500e+001
 -1.2021050e+002
 -1.4021050e+002
 -1.4421050e+002
 -1.3621050e+002
 -1.2821050e+002
 -1.1121050e+002
 -8.6210500e+001
 -6.6210500e+001
 -6.4210500e+001
 -6.1210500e+001
 -6.1210500e+001
 -6.4210500e+001
 -6.5210500e+001
 -6.1210500e+001
 -5.5210500e+001
 -4.3210500e+001
 -3.7210500e+001
 -3.2210500e+001
 -3.4210500e+001
 -3.6210500e+001
 -4.4210500e+001
 -5.1210500e+001
 -5.7210500e+001
 -5.7210500e+001
 -5.2210500e+001
 -3.9210500e+001
 -2.7210500e+001
 -2.2210500e+001
 -2.4210500e+001
 -3.0210500e+001
 -3.6210500e+001
 -4.3210500e+001
 -4.6210500e+001
 -4.3210500e+001
 -3.3210500e+001
 -2.1210500e+001
 -1.1210500e+001
 -1.1210500e+001
 -1.3210500e+001
 -1.9210500e+001
 -2.5210500e+001
 -3.4210500e+001
 -4.0210500e+001
 -3.6210500e+001
 -2.7210500e+001
 -1.5210500e+001
 -2.2105000e+000
  4.7895000e+000
  6.7895000e+000
  4.7895000e+000
 -5.2105000e+000
 -2.0210500e+001
 -2.2210500e+001
 -1.8210500e+001
 -9.2105000e+000
 -2.2105000e+000
  6.7895000e+000
  1.5789500e+001
  1.8789500e+001
  1.3789500e+001
  8.7895000e+000
  4.7895000e+000
 -2.1050000e-001
  3.7895000e+000
  1.2789500e+001
  1.9789500e+001
  2.7789500e+001
  4.1789500e+001
  4.3789500e+001
  4.0789500e+001
  3.2789500e+001
  2.4789500e+001
  1.8789500e+001
  2.5789500e+001
  3.6789500e+001
  5.0789500e+001
  6.0789500e+001
  7.0789500e+001
  7.0789500e+001
  6.5789500e+001
  5.5789500e+001
  5.5789500e+001
  5.3789500e+001
  5.7789500e+001
  6.7789500e+001
  8.1789500e+001
  9.6789500e+001
  1.0478950e+002
  1.0478950e+002
  1.0578950e+002
  1.0378950e+002
  9.6789500e+001
  9.2789500e+001
  9.3789500e+001
  9.8789500e+001
  1.1378950e+002
  1.2778950e+002
  1.3778950e+002
  1.4178950e+002
  1.4078950e+002
  1.3478950e+002
  1.2778950e+002
  1.2778950e+002
  1.2978950e+002
  1.3778950e+002
  1.5178950e+002
  1.5678950e+002
  1.6378950e+002
  1.5578950e+002
  1.5278950e+002
  1.4678950e+002
  1.4178950e+002
  1.3678950e+002
  1.4078950e+002
  1.4878950e+002
  1.5878950e+002
  1.6578950e+002
  1.7178950e+002
  1.6378950e+002
  1.4978950e+002
  1.3578950e+002
  1.2178950e+002
  1.0678950e+002
  9.9789500e+001
  1.0078950e+002
  1.0078950e+002
  9.9789500e+001
  9.9789500e+001
  9.2789500e+001
  7.6789500e+001
  6.1789500e+001
  4.2789500e+001
  2.8789500e+001
  1.9789500e+001
  2.0789500e+001
  2.4789500e+001
  1.9789500e+001
  1.6789500e+001
  1.3789500e+001
  3.7895000e+000
 -7.2105000e+000
 -1.9210500e+001
 -2.7210500e+001
 -2.9210500e+001
 -2.5210500e+001
 -1.7210500e+001
 -1.1210500e+001
 -5.2105000e+000
 -9.2105000e+000
 -1.8210500e+001
 -3.2210500e+001
 -4.6210500e+001
 -5.0210500e+001
 -4.9210500e+001
 -4.1210500e+001
 -3.5210500e+001
 -2.4210500e+001
 -1.5210500e+001
 -1.5210500e+001
 -2.2210500e+001
 -2.9210500e+001
 -3.6210500e+001
 -4.0210500e+001
 -4.1210500e+001
 -4.0210500e+001
 -3.9210500e+001
 -2.8210500e+001
 -2.1210500e+001
 -2.3210500e+001
 -2.7210500e+001
 -3.6210500e+001
 -4.6210500e+001
 -5.1210500e+001
 -4.9210500e+001
 -4.3210500e+001
 -3.3210500e+001
 -2.2210500e+001
 -1.4210500e+001
 -1.5210500e+001
 -2.7210500e+001
 -3.2210500e+001
 -4.2210500e+001
 -4.4210500e+001
 -4.4210500e+001
 -4.1210500e+001
 -3.4210500e+001
 -2.5210500e+001
 -1.8210500e+001
 -1.9210500e+001
 -2.5210500e+001
 -3.3210500e+001
 -3.9210500e+001
 -4.7210500e+001
 -5.3210500e+001
 -4.4210500e+001
 -3.2210500e+001
 -2.3210500e+001
 -1.5210500e+001
 -1.3210500e+001
 -2.1210500e+001
 -3.0210500e+001
 -3.8210500e+001
 -4.6210500e+001
 -4.4210500e+001
 -3.5210500e+001
 -2.9210500e+001
 -2.1210500e+001
 -1.5210500e+001
 -2.2210500e+001
 -2.6210500e+001
 -3.3210500e+001
 -3.9210500e+001
 -4.6210500e+001
 -4.4210500e+001
 -3.4210500e+001
 -2.6210500e+001
 -1.9210500e+001
 -1.0210500e+001
 -1.2210500e+001
 -1.5210500e+001
 -2.7210500e+001
 -3.8210500e+001
 -4.9210500e+001
 -4.7210500e+001
 -4.1210500e+001
 -3.3210500e+001
 -2.4210500e+001
 -1.4210500e+001
 -1.7210500e+001
 -2.5210500e+001
 -3.1210500e+001
 -3.9210500e+001
 -4.6210500e+001
 -4.8210500e+001
 -4.5210500e+001
 -3.7210500e+001
 -3.3210500e+001
 -2.4210500e+001
 -2.3210500e+001
 -2.4210500e+001
 -3.3210500e+001
 -4.3210500e+001
 -5.5210500e+001
 -5.6210500e+001
 -5.2210500e+001
 -4.1210500e+001
 -3.4210500e+001
 -2.7210500e+001
 -2.8210500e+001
 -3.2210500e+001
 -4.7210500e+001
 -5.7210500e+001
 -5.9210500e+001
 -5.9210500e+001
 -5.3210500e+001
 -4.2210500e+001
 -3.5210500e+001
 -2.5210500e+001
 -3.0210500e+001
 -3.4210500e+001
 -4.2210500e+001
 -4.9210500e+001
 -5.7210500e+001
 -5.9210500e+001
 -5.6210500e+001
 -5.2210500e+001
 -4.3210500e+001
 -3.4210500e+001
 -3.1210500e+001
 -3.8210500e+001
 -4.7210500e+001
 -5.6210500e+001
 -6.1210500e+001
 -6.2210500e+001
 -5.6210500e+001
 -4.4210500e+001
 -3.4210500e+001
 -3.0210500e+001
 -3.3210500e+001
 -4.5210500e+001
 -5.0210500e+001
 -5.7210500e+001
 -6.6210500e+001
 -6.6210500e+001
 -5.8210500e+001
 -5.1210500e+001
 -4.3210500e+001
 -3.4210500e+001
 -3.2210500e+001
 -3.8210500e+001
 -4.2210500e+001
 -5.2210500e+001
 -5.9210500e+001
 -6.3210500e+001
 -5.2210500e+001
 -3.8210500e+001
 -2.3210500e+001
 -1.1210500e+001
 -1.2105000e+000
 -2.1050000e-001
 -8.2105000e+000
 -1.7210500e+001
 -2.2210500e+001
 -2.0210500e+001
 -2.0210500e+001
 -1.3210500e+001
 -5.2105000e+000
  1.7895000e+000
  5.7895000e+000
  5.7895000e+000
 -3.2105000e+000
 -1.3210500e+001
 -2.0210500e+001
 -1.5210500e+001
 -7.2105000e+000
  1.7895000e+000
  1.1789500e+001
  2.4789500e+001
  2.5789500e+001
  2.1789500e+001
  1.0789500e+001
 -6.2105000e+000
 -1.7210500e+001
 -1.7210500e+001
 -1.3210500e+001
 -9.2105000e+000
 -4.2105000e+000
 -2.1050000e-001
 -3.2105000e+000
 -1.2210500e+001
 -2.9210500e+001
 -4.0210500e+001
 -5.2210500e+001
 -5.8210500e+001
 -5.6210500e+001
 -5.3210500e+001
 -5.3210500e+001
 -4.4210500e+001
 -4.5210500e+001
 -4.7210500e+001
 -5.3210500e+001
 -6.3210500e+001
 -7.5210500e+001
 -7.7210500e+001
 -7.1210500e+001
